alpha,beta,energy-per-particle[au],time[s],variance
0.5,0.5,1.6430641024558679,11.886,2.2738883837957165
0.531390220888671,0.5030321143892186,1.61988886905877,12.033,1.5904858905756267
0.5635441149351963,0.5059336324215388,1.6810706955618735,11.958,1.0276093876603554
0.5915476800703657,0.5071143225154338,1.5612050259367578,11.013,0.9031742746398219
0.6094034057031191,0.50573180731764,1.60002476465374,11.282,1.3026921703656065
0.6335860046584498,0.5056267297304629,1.5729392750654145,12.331,1.356729412801407
0.6490866191275076,0.5034511465619261,1.5257249270586464,10.946,0.5440704741326989
0.6698557652088635,0.5054093505953475,1.5589388889625593,10.794,5.027653796361339
0.677173736768332,0.5017647219360579,1.5429959823461903,12.157,0.8195887541885423
0.6874319848926421,0.5003315277431719,1.5884600140303438,12.002,1.1591105332871603
0.7052443951598253,0.49883354280562714,1.5814051077235594,11.873,0.6578200562530263
0.7178329971288495,0.4966091559429911,1.5714053023288734,11.686,0.9309133129244902
0.728869104703741,0.49374888037576026,1.5629767494263407,11.694,2.1311229398682787
0.7373555079668904,0.49085376608975223,1.604906398313023,11.273,1.4532411842824295
0.7443797679256182,0.4859534154753596,1.5093766387102248,10.884,1.0435588537661165
0.7499171649428816,0.48316037279947904,1.5491805338449236,10.655,1.2332057902724216
0.7584287913870089,0.4800829974311694,1.5530243090303966,11.381,0.7940631215078273
0.7618474302243146,0.4766388044788415,1.4957206893540915,11.647,0.7520349656992593
0.7685612844508076,0.4742268620611097,1.5407759029898833,11.592,0.9759166844954716
0.77229375018132,0.47080966754064113,1.5037212881651063,10.693,0.5697974323261565
0.7726076016614273,0.46758345486629715,1.5179307213371422,11.273,1.1175987018444484
0.7760170315230337,0.46395165286967577,1.5520955734325035,10.632,3.3050747352717913
0.7783012695161065,0.4580882881303429,1.552612733217384,10.705,2.0015208771265858
0.780890929293913,0.4532653757496903,1.5235546115918652,10.952,1.1684058529436374
0.7842290372684466,0.4490707009324981,1.6070809509606054,10.585,1.6882363036008137
0.7889075482141007,0.44220746232950403,1.5757743453377417,10.861,1.8577162917756525
0.7907278214279836,0.43668396076428095,1.4996622339262935,10.813,0.6037674487494016
0.7953215097054609,0.43431563194283196,1.5616278052279664,10.731,1.6762169840743226
0.7980457540495212,0.42933639760470094,1.5100239877240418,11.138,1.1749398295246198
0.7994441717512125,0.42560728305236,1.5326471133751574,10.763,5.0315714342670255
0.8013984836846014,0.42109460794423775,1.5692338718868517,10.967,1.7684438619433163
0.8023369429186503,0.4158499253206513,1.5183970508972673,10.804,11.690930130354074
0.8017244886988699,0.4108460916563193,1.531972177806885,10.774,8.373807309272452
0.8032649779700891,0.40652612356379936,1.5484000088230763,11.354,1.2263339373293292
0.8040760018367283,0.40044493728818925,1.5019075400928823,10.737,1.0939165274852378
0.8027890095603933,0.39523315214031884,1.5643717444923777,10.856,1.7085369444049956
0.8107406484733574,0.39129969402391557,1.5526758526528266,10.903,1.0186132166758082
0.8112133563652418,0.38543553047408546,1.5180898148365336,10.676,1.4288886922634223
0.8133328356571101,0.38002262630414774,1.4923697511357166,10.533,0.6264178990916047
0.8157686611952251,0.37708818894555396,1.5037248344252592,10.845,0.6052455739350915
0.8177425560581084,0.3734052375583811,1.4946809440572,10.708,0.4858702901829126
0.8210562185309229,0.3708638657083248,1.5313419623156193,10.839,0.6727839604626009
0.8281533709210633,0.36746188966840065,1.5347718674717057,11.096,0.795056447633467
0.8311701670167806,0.3631126743785674,1.5129136146816962,11.013,0.6671599131131316
0.8322252920501785,0.35867875726208376,1.5423483797643598,10.769,1.0231525100479608
0.8341219910619186,0.35271233872237184,1.5087744200709674,10.737,0.49276236421834163
0.8367164477739537,0.34963483550560276,1.4914796099836152,10.885,0.6311668390070508
0.8368846993206668,0.345280405197725,1.5037940788319841,10.423,1.9062600615694425
0.8392272480871373,0.3406126659650703,1.527371151501446,11.167,1.50279225397977
0.8367248665148006,0.3341752519152974,1.5532217268952286,10.739,1.236290435282923
0.8387398367869893,0.3275903272411507,1.51291432416503,10.753,0.4734574946027603
0.8422009247212995,0.32382669357506805,1.5496539992101686,10.75,1.1506413859494167
0.8416457557962428,0.3168174171309426,1.5290056153572869,10.766,1.2553089524459402
0.8402070355586421,0.3107106539479917,1.495299981701082,11.309,0.6331974488207752
0.8399916791339584,0.3057004835785019,1.5507736321444219,10.784,1.0196418895366754
0.84075108550556,0.3000767380988977,1.5159855153937405,10.628,0.5232011878954683
0.842321130177934,0.29572876441885537,1.53159232139054,10.84,0.7176721625607456
0.8444297099805227,0.2918954835357788,1.5193633040789623,10.89,1.0155317768550276
0.8429580460742457,0.28453569728235506,1.4940118114690717,10.78,0.38465558129557387
0.8441580186401357,0.28131184188378905,1.5443206256953175,10.592,1.9887845011714163
0.844242435495219,0.27464994440697593,1.508005704311132,10.694,0.7897326586676705
0.8425459817158503,0.2687900022479417,1.5007359478484095,10.444,0.33710423920651245
0.8471852782054641,0.2674819272477441,1.50895686787791,10.852,0.43580736601633774
0.8517596572854449,0.26544354402528814,1.544978051556046,10.833,1.7232624517093615
0.8516056569331775,0.2577310527715312,1.5566080487882248,10.987,1.0995332269303013
0.8502487920727273,0.2494072263544924,1.5535519887815454,10.682,2.143884046095737
0.8542333574860786,0.24352038744373636,1.5165406770814582,10.71,0.6090824330263871
0.8546531688226252,0.23809928145976428,1.4948556414694518,11.058,0.4238551146437928
0.8561562964938453,0.2331932947139914,1.5313162358821308,10.925,1.4111848385680776
0.8553450752584459,0.22603947824934761,1.534231396653946,10.897,0.5568020532794264
0.8568237454000304,0.22024565729106874,1.5166479136707034,11.005,0.9512230953207652
0.8581077655584223,0.21372912120561402,1.5582505325450102,10.772,2.862864142215944
0.8570813183673041,0.204225485745925,1.5211561797350066,10.786,1.2627524996009196
0.8576430456806572,0.19888754796200184,1.5133639728875234,10.685,1.1025542934795869
0.8611975879738484,0.19601425544019807,1.580072808085261,10.868,1.9814514213289982
0.8611305949821013,0.1850191238146291,1.534013078431571,10.695,0.848808022699103
0.8635741810970167,0.17904378534285253,1.5469857870462334,10.858,1.4162538538079925
0.8634138356976581,0.17148734847870273,1.5028283536512757,10.714,0.7157406087559863
0.8647873558471938,0.16654802526468918,1.533156916829293,10.646,1.0775358502060062
0.865032876139503,0.15940366453487084,1.5358585959957107,10.782,1.186862105251052
0.8683046773667727,0.15544685013349963,1.529091799799373,10.605,1.0188389701009246
0.8689994758408539,0.14897080904830862,1.5233418312685305,10.728,1.3726854069193504
0.8702950681684682,0.1427484741851969,1.5108776468591805,11.06,0.5380122563013003
0.8715919718059975,0.13691319733347748,1.5588463446202718,10.882,4.515816511637485
0.8720335592745864,0.128715806081026,1.5216324680915716,10.732,0.6047329392238314
0.8740444490167968,0.12491177431015771,1.4887313627242937,10.642,0.43016427276403846
0.8757165819335199,0.12389518861004245,1.5216849819429659,10.734,0.3587965457638038
0.8795927332767007,0.12197952923376228,1.5304118843997145,10.487,3.097826206081203
0.8809191345222566,0.11668091085823856,1.5287738056152018,11.138,1.3664710861749914
0.8811514191819187,0.10910929904817955,1.517243565856252,10.65,0.3563315227820585
0.8848294268883916,0.10456988019701473,1.5049443163192309,10.845,1.590219322375276
0.8859353648606623,0.100015629827041,1.5170798309228386,10.731,0.9108248006791211
0.8870634076743042,0.09370944016946214,1.5007179339392727,10.863,0.6064061054076717
0.8896948715578282,0.09220756286829758,1.5276725415719423,11.01,1.1190514677411727
0.8904088579288626,0.08679598310978402,1.5193605790485123,10.752,1.5333795358259934
0.8909755834765251,0.07938220471093832,1.535798418503342,10.865,0.7662579800597342
0.8923711954862162,0.07429290722155972,1.509656263168343,10.791,0.4186363800051982
0.8931481503462892,0.06854188071297461,1.5163556577300215,11.244,0.9745172637083659
0.8927583740420265,0.062407779821114104,1.5234777761507046,11.083,2.748847698523937
0.8944036293312492,0.0591941174816705,1.5431793584038729,10.703,2.0046285473161376
0.8945814111825471,0.0498069100953365,1.507984669168843,10.944,1.6207781447879128
0.896373819251898,0.04907308311130573,1.500325785300061,10.703,0.5583665885544296
0.8988054245469806,0.047419900363368434,1.5082793321579318,10.815,0.45529683782694264
0.9021858036304788,0.05230670920733302,1.5109837850440189,10.826,0.5774935434020936
0.9031745310090493,0.04813930132792048,1.4990527200305388,10.74,0.395073218350392
0.9059270809503431,0.048079079034004296,1.5252468732394011,10.615,0.899470005273848
0.9055839227628095,0.04100704701131622,1.5156309805108794,10.651,0.7958868789654954
0.9091025018665712,0.046988364538381434,1.504646743768426,10.819,0.5372411455838595
0.9115491570597931,0.04838533891255966,1.5196839093232655,10.592,0.7987120431386625
0.9129069630275366,0.04438280870650675,1.5242764323550835,10.917,0.6780161270350291
0.9201394252429126,0.054199673873916825,1.4952702239734486,10.334,0.2153859387277386
0.9230699309739357,0.053931825181350874,1.4991623935285696,10.8,1.4019393781852472
0.9231049325634488,0.05065106756140682,1.5153194785560113,10.521,0.49030709631161074
0.9244124773290305,0.049055800218632116,1.5036735437866735,10.684,0.3581587380975719
0.9254841683690058,0.04547200373259307,1.50753909865462,11.014,0.5771332295306095
0.9262766414635847,0.04463343799142584,1.5136260867001228,10.997,0.9496247520212862
0.9267726687342385,0.0393505923133189,1.5067787354755644,10.96,1.1416093142404211
0.926428326886131,0.03518940330389664,1.4856106406791658,10.871,0.4119285504155652
0.9278167388708589,0.0362331097094573,1.5189046673862974,10.687,1.2214194272601304
0.9275198555161582,0.03311374436576172,1.5083106847443657,11.163,0.40076013897085083
0.9291484927453216,0.0328660974020019,1.518630988291769,11.014,0.7400864246053462
0.9299483864923832,0.03266783473952471,1.5115635261135574,10.753,0.5315552653016358
0.9312737729300868,0.031731221926550354,1.5148760441837568,10.657,2.671620326162307
0.9314258669631548,0.027801058690236708,1.523379334718959,11.143,0.6259488411595431
0.9311542225305002,0.02246513330608287,1.5005647048373576,10.921,0.8743252768225833
0.9331071848923689,0.022525425367653888,1.5314479208114071,11.116,0.8897465209684956
0.9369445640720748,0.02535388356297374,1.5158395278486938,11.245,0.7228732931330111
0.9386522715384381,0.028809383902653203,1.4973019846236273,10.683,0.5358437341412934
0.9409058573346442,0.028541528465754303,1.499887536597462,10.809,0.372846358841036
0.9412755780695123,0.024466331272131638,1.5179954020166273,10.545,1.0835577065590307
0.9411523296673795,0.021991424963777415,1.505012348935704,11.091,0.5044728181382414
0.9450604851242346,0.029991979125326817,1.5065930137274692,10.902,0.7886692209584965
0.9448803553604961,0.025483567501344014,1.5157482216686644,10.818,0.5152398779776135
0.9455228502657705,0.024235217029476303,1.5201828621094264,10.559,1.214551118987
0.9460371035391667,0.01605404839980404,1.5001744821164864,11.062,0.5768884773395033
0.9485161604838677,0.021124246585821516,1.5139643488370038,10.886,0.5919145680581028
0.9509305869184026,0.024140898175091102,1.5051874037078559,10.738,0.34233464582627526
0.9519760697294513,0.025948594466595643,1.502338443313182,11.076,0.4906077994887106
0.9522125471442583,0.022390907132401435,1.4995794034883019,10.804,0.343256849043982
0.9533200898552718,0.022455164538047277,1.506322757155258,10.944,0.38998044170723745
0.9550846563385095,0.02279354647021004,1.5150741715276466,10.573,1.2033795469819228
0.9549534877179466,0.0180700762310992,1.5007312057926134,10.947,0.5238789154139951
0.9559113834710192,0.018195236117567952,1.5391293181508716,10.882,0.8179267033648046
0.9573484699936261,0.015747857970051647,1.5069096065951793,10.71,1.2734199952153986
0.9570645907637735,0.011803719181530021,1.5195308175258644,10.432,1.2557310919910982
0.9566767080505355,0.006177835796283291,1.5036191369402847,10.801,0.9613613233645868
0.9578150297818556,0.005619016568708361,1.5174496622776164,10.623,18.561547444043
0.9598686922419987,0.01149318886956506,1.510576022741998,10.825,0.8723411028876935
0.9589915945092712,0.0055156307651091155,1.5267484192457317,10.751,2.281866490833931
0.9593522258270915,0.0030543480869139683,1.5172229963245962,10.688,0.4624593892471207
0.9601959939974929,0.0030703425523504035,1.4990413745610174,10.371,0.633502961570791
0.9615728451230121,0.004903445376296339,1.498781336272341,10.936,0.7034432286085721
